Axial position (m),Channel width (m)
0,0.0102
0.01,0.0109
0.02,0.0115
0.03,0.0122
0.04,0.0127
0.05,0.0132
0.06,0.0136
0.07,0.0138
0.08,0.0138
0.09,0.0136
0.1,0.0133
0.11,0.0128
0.12,0.0124
0.13,0.0118
0.14,0.0113
0.15,0.0108
0.16,0.0103
0.17,0.0098
0.18,0.0094
0.19,0.009
0.2,0.0088
0.21,0.0091
0.22,0.0099
0.23,0.011
0.24,0.013
0.25,0.0159
0.26,0.0209
0.27,0.0276
0.28,0.0343
0.283,0.0365
